  1.6499930e-001  8.4286755e-001  3.1710910e-001  2.0740576e-001  4.4222923e-001  3.1273320e-001
  1.0462524e-002  7.3212954e-001  1.6711422e-001  6.0415583e-001  3.1715731e-001  6.8973883e-001
  1.9300677e-002  6.5476145e-001  6.1597751e-001  8.3774126e-001  7.6649669e-001  1.2934366e-001
  7.1068890e-001  6.1279459e-002  7.9750250e-002  5.3196685e-001  4.5338665e-001  4.7098299e-001
  6.9912588e-001  7.2579975e-001  6.6340077e-001  3.0489387e-001  3.6399502e-001  7.2439870e-001
  9.2923156e-002  2.8058378e-002  9.1785897e-001  9.6600699e-001  7.4839340e-001  7.3308369e-002
  2.1128225e-001  8.1354989e-002  2.7375571e-001  2.8627531e-001  2.4856544e-001  1.4113588e-001
  6.8432252e-001  4.0239464e-001  3.0524897e-002  2.9940381e-001  8.7777681e-001  6.3427180e-001
  6.1183395e-001  9.8822667e-002  9.7448000e-002  8.4906602e-001  6.3877779e-002  8.6474401e-001
  2.9009073e-001  9.3451955e-001  4.8748293e-001  8.8628923e-002  2.2435531e-001  4.7303903e-001
  2.2582718e-001  8.9524626e-001  9.5081552e-001  8.7680971e-001  4.0448233e-001  1.7514840e-001
  5.0396200e-001  1.5087758e-002  5.2151012e-002  5.0691620e-001  1.2552785e-001  8.4033472e-001
  5.5095393e-001  6.6784258e-001  3.7648691e-001  9.1186986e-001  3.7153010e-002  9.2893169e-001
  5.9096869e-001  3.3959107e-001  4.7529394e-001  6.2421706e-001  5.4857096e-001  5.1221454e-001
  6.6383355e-001  8.5298914e-001  1.7946259e-001  1.7178347e-001  8.6398741e-001  6.5807101e-001
  4.5499264e-001  9.2199936e-001  8.3559209e-001  9.5727670e-001  7.9517087e-001  6.9727063e-002
  2.1536033e-001  2.0308404e-001  1.0015706e-001  5.1484876e-001  6.2204050e-001  7.9337673e-002
  7.7087192e-001  3.5364734e-001  7.2887969e-001  5.4184501e-001  7.1009527e-001  1.4152586e-001
  5.5639775e-001  2.6303925e-002  9.2759762e-001  6.2920050e-001  9.1344391e-001  8.4908245e-001
  2.2983103e-001  1.8224955e-001  7.4102642e-001  5.9038179e-001  4.2024221e-001  2.7278266e-001
  1.1214706e-001  6.9831629e-001  8.2169175e-001  8.4906373e-001  4.9740588e-001  4.3108801e-001
  3.7068088e-001  6.9184525e-001  1.1459241e-001  2.1402615e-001  8.9214740e-001  1.6750271e-001
  9.8703787e-001  4.3437272e-001  3.2516414e-002  7.7027080e-001  2.0011614e-001  3.8183534e-001
  4.3290905e-002  9.4396088e-001  2.3491607e-001  5.2444398e-001  1.5855799e-001  7.6715111e-001
  1.2181277e-001  1.9757331e-002  7.9871991e-001  7.6268398e-001  8.4783151e-002  9.3325726e-001
  9.8265237e-002  4.4245842e-001  7.7299152e-001  6.9397357e-001  7.6429571e-001  5.0760294e-001
  7.1925349e-001  8.1300481e-001  2.1964269e-001  7.0672790e-001  5.1488555e-001  1.5313891e-001
  8.8811553e-001  9.2103995e-001  4.0514996e-001  7.1120387e-001  7.2868982e-001  2.5699665e-001
  7.8680299e-001  8.4518658e-001  7.7873101e-001  2.5016511e-001  5.1224401e-001  4.6802476e-001
  8.2142579e-001  5.6989556e-001  6.4044789e-001  4.2489619e-001  4.9166328e-001  1.1958305e-001
  8.2810125e-001  8.8958610e-001  2.3387036e-001  6.0726539e-001  5.9226717e-001  9.1504802e-002
  8.2067926e-001  5.2906036e-001  5.3494702e-002  7.1422263e-001  7.9060721e-001  9.6224511e-002
  1.7349624e-001  6.4909486e-001  7.9113212e-002  6.6481904e-001  6.6355955e-002  2.9305398e-001
  8.6126412e-001  6.0531637e-001  8.1055871e-001  5.9235501e-001  5.1651092e-001  9.8904496e-001
  6.0647854e-001  2.6190202e-001  4.6687824e-001  4.3075292e-001  2.2676409e-003  4.7345081e-001
  2.7647453e-001  8.0497855e-001  3.0320741e-001  2.9287810e-001  4.4433749e-001  5.2317801e-001
  3.0860160e-001  2.4184408e-001  3.4614646e-001  2.9824658e-001  5.2289269e-001  3.2277284e-001
  7.6785005e-001  1.8282825e-001  9.5235906e-001  2.8677188e-001  1.0750802e-001  6.9395835e-001
  4.1472973e-001  7.3647013e-001  6.2006708e-001  9.0851058e-001  9.7236021e-001  8.7890209e-001
  7.9939698e-001  7.3654421e-001  1.9862667e-001  6.7012809e-001  3.1366692e-001  2.8261653e-001
  2.3413262e-001  2.6721027e-001  7.6888584e-001  7.7263204e-001  6.9289486e-001  4.4874707e-001
  4.2911841e-001  9.6626665e-001  3.4347333e-001  1.6947194e-001  7.7074663e-001  3.6023817e-001
  2.9871193e-001  3.8529908e-001  8.0677698e-001  1.4093933e-001  5.2821147e-001  7.3821657e-001
  2.9750174e-001  5.5987848e-001  3.0099557e-001  1.4465524e-001  4.8145235e-001  1.7444746e-001
  2.1782667e-001  8.5826076e-001  7.8268795e-001  5.5574670e-002  7.9769150e-001  8.3431641e-001
  5.2828773e-005  2.6204238e-001  2.5409383e-001  9.0209514e-001  3.1403300e-001  4.6931323e-003
  2.7460917e-001  1.4870910e-001  2.9471975e-001  4.2892738e-001  4.2410953e-001  7.5441102e-001
  4.8215411e-001  1.3130475e-001  2.3355747e-001  1.2815959e-002  2.0428347e-002  3.5746071e-001
  5.7454266e-001  4.6714443e-001  4.3695643e-001  8.0304882e-001  6.4094146e-001  8.5049603e-001
  2.0267939e-001  7.5787746e-001  8.9239967e-001  8.5751300e-001  3.8246366e-001  3.6464211e-001
  8.8104268e-001  2.4045532e-001  9.3680103e-001  1.5520083e-001  3.3954647e-001  9.0058081e-001
  2.9061356e-001  1.0857216e-001  8.1842287e-001  6.5954286e-001  1.9406074e-001  7.8209318e-002
  7.8175709e-001  6.6663193e-001  2.9098837e-001  4.6015492e-001  5.7753321e-001  5.9121054e-001
  8.6923024e-001  9.2183324e-001  7.8424636e-001  4.4645808e-001  4.4735416e-001  4.7508097e-001
  5.8471563e-002  6.2220289e-001  7.9958210e-001  7.1316313e-001  1.3083591e-001  4.0891724e-001
  6.0308787e-001  5.8031798e-001  6.4032250e-001  5.0770153e-001  3.3413442e-001  4.0280227e-001
  4.8937023e-001  8.3442023e-001  5.1059742e-001  5.0578280e-001  2.8213844e-001  9.8950323e-001
  9.2398216e-001  1.5579944e-001  4.4122167e-001  7.7711442e-001  2.6503161e-001  7.9971184e-001
  6.9464664e-001  2.9618580e-001  3.0666164e-001  7.8768561e-001  7.5464668e-001  9.6141727e-001
  7.1584582e-001  1.7961534e-001  2.1527963e-001  7.1880263e-002  4.2734028e-001  7.7789380e-001
  4.7729588e-001  2.5766781e-001  2.0087195e-001  8.5330625e-001  4.6781430e-001  7.0114999e-001
  3.1790213e-001  8.8510662e-001  2.6729351e-001  7.2626886e-001  5.1450752e-001  7.7677016e-001
  3.2520912e-001  2.6895617e-001  7.7605791e-001  2.0555739e-001  4.2505437e-001  8.3553281e-002
  2.1080185e-001  9.0149820e-001  3.2529049e-001  4.4614658e-001  7.9254844e-001  4.1162876e-001
  2.1752022e-001  9.5274445e-002  7.1571107e-001  6.8751200e-003  8.7835876e-001  5.6977095e-001
  3.4247891e-001  7.6156134e-001  3.4203765e-001  2.0574508e-001  7.4966129e-001  5.3158874e-001
  8.8175181e-001  1.3117706e-001  9.3655222e-001  7.9274892e-001  8.5791612e-001  5.8495111e-001
  4.9216027e-001  7.4792801e-001  3.4813263e-001  5.3811417e-002  8.9557816e-001  3.9089641e-001
  5.0362986e-001  1.3484335e-001  4.2124002e-001  2.0763476e-002  7.6445533e-001  8.8388740e-002
  4.2384922e-001  6.7293228e-001  9.5639295e-001  6.3163396e-001  9.8132275e-001  7.9359193e-001
  6.5340657e-001  3.7631806e-001  6.8737938e-001  3.8239365e-001  7.2312133e-001  3.8303543e-001
  7.6532071e-001  2.0263019e-001  8.2794669e-001  8.6061208e-001  5.9058874e-001  4.6253007e-001
  4.6483017e-001  9.0848616e-001  7.2225013e-001  7.7364415e-001  1.9337654e-001  8.6285700e-001
  2.5775718e-001  4.8198738e-002  8.6986105e-001  3.1802978e-001  7.6977649e-001  5.1731691e-001
  6.5742573e-001  1.6601649e-001  3.2525816e-001  1.5043329e-001  6.0782686e-001  7.0581147e-001
  2.8549148e-001  5.6008344e-001  4.9788698e-001  6.8703428e-002  8.1459714e-001  7.5928548e-001
  6.6598167e-001  9.8710611e-001  3.2731203e-001  5.3379304e-001  5.5814511e-001  8.6636835e-001
  4.4852883e-001  4.3109257e-001  1.4753753e-001  9.6966815e-001  6.0411252e-001  4.2821374e-001
  9.5225109e-001  6.7249445e-001  4.4639753e-001  5.1951593e-001  2.4881742e-001  7.2345597e-001
  5.4047258e-001  5.3010053e-001  3.4444894e-001  2.4427183e-001  7.3103178e-001  6.4497381e-001
  4.5088530e-001  4.7514324e-001  2.2741743e-001  7.5064917e-001  2.0294610e-001  6.9459065e-001
  2.9629664e-001  4.2250535e-001  3.9850762e-001  2.4092366e-001  2.9718697e-001  2.8416713e-001
  2.7805085e-001  4.2172090e-001  6.8629984e-001  4.4883603e-001  2.3529487e-001  8.8695159e-002
  5.7515904e-001  3.1302166e-001  6.4907918e-001  6.9179559e-001  7.7876459e-001  5.8760261e-001
  1.6723926e-001  1.4156931e-001  3.5846525e-001  4.2579318e-001  4.7461095e-001  5.8141507e-001
  4.5536827e-002  6.2796237e-001  3.2992739e-001  1.5884036e-002  7.7046395e-001  5.4589935e-001
  2.7771989e-001  4.1034826e-003  3.0453597e-001  4.8077791e-001  5.7166246e-001  4.8382278e-001
  7.2708190e-001  9.4806962e-001  1.1097197e-001  6.8411554e-001  8.3209475e-001  6.9685158e-001
  5.2392307e-001  2.5192592e-001  9.3308489e-001  6.1328219e-001  3.5223564e-001  1.0019089e-001
  4.5824603e-001  5.9484857e-001  6.3025781e-001  2.2623394e-001  9.2787606e-001  9.4681092e-002
  3.5531198e-001  8.4443659e-001  2.2517002e-001  1.8543270e-001  1.6217008e-001  3.9992443e-001
  4.5301857e-001  2.4329604e-001  9.0791965e-001  7.4211889e-001  3.0310080e-001  3.8760655e-001
  6.0566953e-002  5.2553224e-001  5.2270731e-001  9.3846022e-001  8.1980717e-001  9.5769493e-001
  3.7791373e-001  9.8740463e-001  1.6123281e-001  8.7585117e-001  1.5159426e-001  1.9861865e-001
  9.5278744e-001  7.8910534e-002  2.2656874e-001  9.2374176e-001  6.1863931e-001  2.6699906e-002
  7.2159008e-001  7.9331682e-001  9.2771767e-001  3.6357177e-001  4.1049654e-001  1.7630484e-002
  6.5047193e-001  1.1041093e-001  6.7543159e-001  8.0778283e-001  4.0997950e-001  4.1673199e-001
  5.5031434e-001  4.0779531e-001  7.5326173e-001  4.5661226e-001  1.9781437e-002  1.0532937e-001
  2.8147614e-001  9.5004921e-001  5.8757741e-001  6.5825655e-001  8.8170724e-001  6.9284692e-001
  4.4798782e-001  7.3508001e-001  7.7676754e-001  1.3054764e-001  5.0153699e-001  7.0228196e-001
  5.3543016e-001  8.6006901e-001  4.3383716e-001  1.6025184e-001  7.8265741e-003  5.7761695e-001
  8.5916776e-001  4.7945725e-001  8.4298661e-001  4.1961866e-001  2.1684340e-001  4.3830757e-001
  7.8318619e-001  2.3732174e-001  8.1035619e-001  7.6660767e-002  2.0851450e-001  2.2766833e-001
  3.9361183e-002  2.0901030e-001  9.4451856e-001  3.4979284e-001  5.4746534e-001  6.8143271e-002
  3.5430421e-001  9.3995284e-001  9.2699159e-001  8.6225847e-001  8.5371808e-001  4.8550826e-001
  7.3417745e-001  2.8394675e-001  8.7793616e-002  1.1448163e-001  7.6482381e-002  8.4364335e-001
  9.7321882e-001  3.5116351e-001  2.9387093e-001  3.8538604e-001  7.7853098e-001  7.4616409e-001
  3.2153817e-001  5.0524932e-001  3.5550823e-001  7.0502801e-001  1.7854598e-001  6.9090256e-001
  7.1935231e-001  6.2589741e-001  8.9610792e-001  7.1243872e-002  6.6551518e-001  6.7633051e-001
  1.3184732e-001  6.7872216e-001  9.1050289e-001  3.7682758e-001  3.4174049e-001  7.9762631e-001
  2.8960280e-003  1.0466211e-001  9.2677703e-001  4.6517374e-001  5.1175243e-001  1.8558978e-001
  7.0082990e-001  5.4971872e-001  1.0887246e-001  3.5439506e-001  4.1636793e-001  3.9992465e-001
  6.1895914e-001  8.8330118e-001  4.1888591e-001  2.3546618e-002  9.8396390e-001  9.1588742e-001
  7.5685062e-001  1.1499807e-001  5.7055418e-001  1.5310205e-001  5.8633944e-001  5.7236206e-001
  1.7023534e-001  5.0183742e-001  3.1430173e-001  8.7830734e-001  1.4148056e-001  1.5134865e-001
  1.4183760e-001  8.1044007e-001  5.7750054e-002  9.1285280e-001  7.7878480e-001  5.5684644e-001
  1.2086920e-001  1.0115027e-001  4.5302782e-001  6.1118961e-002  5.7212555e-001  9.7164260e-001
  6.5176747e-002  6.8525322e-002  6.8474696e-001  6.9848559e-001  3.8469800e-001  1.1297315e-001
  1.9426676e-001  5.9785590e-001  9.8304525e-001  3.7515108e-001  1.4513992e-001  6.3992001e-001
  8.1733759e-001  4.6379802e-001  5.9958396e-001  8.1889158e-001  7.0302608e-002  3.1884844e-001
  8.8170216e-001  5.3828453e-001  8.4357081e-001  6.5821393e-001  9.0017957e-002  4.4515242e-001
  4.0847431e-001  5.1214878e-001  4.7099469e-002  2.4412525e-001  4.7411932e-002  5.0952478e-001
  3.0265554e-003  4.1922003e-001  5.4199657e-001  2.3251949e-001  2.1360827e-001  6.0398401e-001
  9.7002738e-001  8.0204075e-001  7.7983368e-001  5.1029068e-001  2.9525336e-001  9.1732549e-002
  8.3198533e-001  7.2433865e-001  4.6898154e-001  3.4113048e-001  8.8928784e-001  8.0636556e-001
  4.9586532e-001  9.0141739e-001  4.4395461e-001  8.5462233e-001  6.2895334e-001  5.4830299e-001
  6.5044034e-001  5.6954310e-001  7.9518736e-001  2.4965892e-001  6.2690756e-001  9.0735961e-001
  3.1300603e-001  6.1145923e-001  1.2603991e-001  3.9130887e-001  4.4806550e-002  9.6047642e-001
  3.2644215e-001  4.5652432e-001  1.4974957e-001  1.5671549e-001  4.4814315e-001  6.0570251e-001
  5.5138945e-002  8.7777560e-001  8.6444632e-002  9.1470060e-001  1.6022054e-001  8.6690022e-001
  9.3194966e-001  1.8940956e-001  1.0041213e-001  7.6597292e-001  6.9191014e-001  1.6323197e-001
  6.3366076e-001  3.5742994e-001  5.3749688e-001  1.6990314e-001  1.5714527e-001  7.9270034e-002
  7.7650028e-001  4.4100044e-001  5.6154807e-001  9.3932313e-001  5.4448284e-001  4.1956911e-001
  1.2838809e-001  3.5759326e-002  7.3669890e-001  7.5920354e-001  9.3400447e-001  3.8636867e-001
  8.3680429e-001  9.1981645e-001  2.1343392e-001  7.1300146e-002  6.2903880e-001  7.6412068e-001
  6.9613861e-001  5.2914451e-001  9.7309448e-001  8.1696433e-001  6.6763687e-001  8.7969326e-001
  7.4366648e-001  5.5465630e-001  1.9349874e-001  7.6230061e-001  8.6353113e-001  1.7753422e-001
  9.0814494e-001  4.7838828e-001  4.1911997e-001  1.8678418e-001  6.3443332e-001  4.0591327e-001
  1.8450692e-001  5.8741968e-001  6.8900815e-001  7.0965964e-001  7.0029232e-001  9.8825743e-001
  5.3602979e-001  7.4793394e-001  5.1835478e-001  4.1316715e-001  1.1173928e-002  8.7182791e-003
  8.8883670e-001  7.9961997e-001  6.1830443e-001  8.2849834e-001  8.7569995e-001  1.3026742e-001
  4.7622002e-001  4.7968435e-001  9.9388992e-001  5.4520647e-001  7.2729621e-001  5.9146546e-001
  2.7321804e-002  6.0965994e-001  7.5720936e-001  6.9858421e-001  2.5439425e-002  7.6115032e-001
  3.5806748e-001  8.6757948e-001  7.3205234e-001  4.9772813e-001  3.0142297e-001  8.2684687e-001
  2.8106929e-001  8.4947523e-001  4.3426817e-002  9.4377274e-001  3.3963515e-001  1.8888385e-001
  7.1930673e-001  9.8462707e-001  4.2269417e-001  9.3585585e-001  1.7765892e-001  5.4953972e-001
  8.5093139e-001  6.0786401e-002  5.4866034e-002  5.0547748e-002  5.9076694e-002  6.5202821e-001
  9.1591658e-001  5.8931489e-001  3.8025432e-001  4.9310389e-001  8.6797665e-001  6.1651536e-002
  4.3152274e-001  1.8600329e-001  1.7872371e-001  7.6912581e-001  2.8181739e-001  9.2094216e-001
  9.7340896e-002  1.0425172e-001  5.1975826e-001  5.0688496e-001  9.8037343e-001  9.0469072e-001
  9.6949507e-001  1.5785865e-001  6.0785134e-001  1.3009202e-002  1.5204973e-001  3.5381442e-001
  9.0554630e-001  1.9606881e-001  5.0033926e-001  5.6229861e-001  7.6018459e-001  5.7854502e-001
  5.6474229e-001  8.3179641e-001  8.2523579e-001  5.0489281e-001  8.3927485e-002  4.0613567e-001
  1.5521020e-001  6.7690097e-001  3.9604307e-001  6.6065543e-001  6.6851232e-001  5.5394715e-001
  7.7568885e-001  5.9118264e-001  4.2215071e-001  5.1011287e-001  2.7775595e-001  2.5586123e-001
  2.2194175e-001  4.4229339e-001  2.9983011e-001  3.0589001e-001  5.5432308e-002  8.9776139e-001
  6.9745041e-001  4.5628060e-001  8.3622041e-001  9.2224114e-001  1.3156071e-002  1.7719849e-001
  7.9897744e-001  1.0340134e-002  4.9272075e-001  7.2912332e-001  1.4542401e-001  5.8923868e-001
  8.4686607e-001  9.4159586e-001  5.3784703e-001  3.2934529e-001  9.4645278e-002  9.1787080e-001
  8.6386870e-001  2.1529399e-001  9.3838275e-001  4.2993401e-001  5.0790226e-001  1.9699185e-001
  8.7062485e-002  6.5568077e-001  3.3139590e-001  1.9491269e-001  9.5807690e-001  4.5322903e-001
  1.7113137e-001  8.0712226e-001  5.0445741e-001  7.1146816e-001  4.1467701e-001  7.5351854e-001
  3.9965741e-001  8.9580594e-001  2.1821591e-001  5.0154029e-001  5.6356702e-001  5.4666499e-001
  5.6681849e-001  1.1749756e-001  5.5095560e-001  1.9165251e-001  5.8420760e-001  9.1905554e-001
  7.4694871e-001  5.5798236e-001  4.6047435e-002  6.0392291e-001  7.5733245e-001  8.3761284e-001
  6.3666984e-001  9.7774329e-001  6.3712626e-001  5.4484126e-001  6.1690203e-001  9.7614728e-001
  9.9513551e-001  6.9356872e-001  1.6320981e-001  8.8698634e-001  7.3068392e-001  2.2863139e-001
  8.2359054e-001  5.6726908e-001  6.8758925e-001  3.9869599e-001  6.2563318e-001  1.2653957e-001
  4.0955843e-001  6.8750612e-001  1.1880621e-001  7.5589959e-001  8.9126765e-001  9.3017774e-001
  4.1521882e-001  4.1613400e-001  6.9610093e-001  2.3216843e-001  6.1030794e-001  5.8259728e-001
  6.9796999e-001  5.5496045e-001  8.0064700e-001  2.4233271e-001  1.6095793e-001  8.3131218e-001
  4.3536579e-001  4.5170590e-001  4.0073592e-002  2.3765175e-001  4.5646410e-001  4.3854771e-001
  9.4103613e-001  1.7656639e-001  8.8424137e-001  2.6206210e-001  1.8693171e-001  1.4419333e-001
  4.7058146e-001  7.1469885e-002  4.9976246e-001  4.8757649e-001  9.3300770e-001  2.6871383e-001
  3.4023713e-002  3.0911512e-001  2.0495544e-001  5.8442809e-001  6.3459218e-001  8.0661644e-001
  2.4834043e-001  9.5582988e-001  1.0295743e-001  8.2718659e-001  9.1882069e-001  4.8950892e-001
  9.0086696e-001  7.2856485e-002  2.8246363e-001  7.4593138e-001  9.7666052e-001  1.6481912e-001
  8.5366217e-001  8.4202985e-001  9.1382453e-001  3.6010881e-001  5.4081407e-001  6.1906990e-001
  2.9901294e-001  9.1321581e-001  4.0650282e-001  4.0136908e-001  8.5502993e-001  6.2559486e-001
  2.5779270e-001  3.6880629e-001  7.8096018e-001  6.5874904e-001  4.3351131e-001  2.9978302e-001
  7.9043791e-001  7.2899209e-001  6.2393422e-001  3.0957040e-001  7.9408104e-001  8.3602018e-001
  5.9877661e-001  9.3835318e-002  6.8551992e-001  2.2460581e-001  1.6377699e-001  5.3048332e-001
  5.2773461e-001  7.2293697e-002  4.6384930e-001  6.2704191e-001  6.2004458e-001  3.2874437e-001
  9.7048982e-001  5.7746900e-001  2.8890014e-002  1.8641483e-001  3.9677439e-001  9.5897285e-001
  6.4465114e-001  4.5263924e-001  8.1888753e-001  5.5387561e-001  1.9858390e-001  4.9543859e-001
  1.4127588e-002  2.8714868e-001  4.8197094e-001  3.4429989e-001  8.2718961e-001  4.8799459e-001
  4.8467873e-001  2.8297091e-001  6.3167496e-001  5.1219903e-001  5.0934820e-001  4.0371322e-001
  6.0987163e-001  3.9098449e-001  5.1526879e-002  8.2425679e-001  6.1994217e-001  1.3545754e-001
  3.8524638e-001  8.6353519e-001  1.4944825e-001  9.8490493e-001  4.6037586e-001  2.1280706e-001
  8.3875074e-001  9.5058486e-001  1.3102270e-001  3.1380799e-001  1.2598857e-001  3.9542256e-001
  8.0138689e-001  2.9338744e-001  3.7903380e-001  1.5621023e-001  5.4551992e-001  9.3287514e-001
  9.6599643e-001  2.1925814e-001  2.2334205e-001  6.7347383e-001  6.6945168e-001  5.4227879e-001
  9.2867221e-001  6.0338542e-001  1.5682519e-001  6.7903883e-001  1.1036908e-001  2.5641284e-002
  5.4746430e-002  3.1449137e-001  5.4021859e-001  1.2141110e-001  1.7599125e-002  2.1504152e-001
  7.1764941e-001  1.9356402e-001  7.2181814e-002  4.2689434e-001  6.0172976e-002  8.6301383e-001
  4.7480857e-001  5.6452612e-001  6.9129596e-001  7.5430639e-002  4.8008893e-001  8.6821265e-001
  4.9294928e-002  3.7196457e-001  8.7814094e-001  6.8118751e-001  6.5745256e-001  7.5262004e-002
  9.7388404e-001  2.5508228e-001  1.8397495e-001  1.4858595e-001  6.3966652e-001  5.4942144e-001
  8.6284105e-001  1.8964160e-001  5.1445619e-001  4.2983705e-001  5.9607203e-001  3.7480852e-001
  3.8088116e-001  2.6427546e-002  8.5674202e-001  1.9587484e-001  5.6744244e-002  4.2180966e-001
  3.1354748e-001  9.8909279e-001  8.9331928e-001  4.0750471e-001  7.6826323e-001  7.7651967e-001
  5.2998053e-001  8.1698045e-001  7.1209015e-001  2.3644227e-001  9.7020963e-001  1.0402701e-001
  2.4659253e-001  2.4611435e-002  3.6112692e-001  7.5027524e-002  6.3155953e-002  4.1206131e-001
  9.6118010e-001  8.9261385e-001  5.4441452e-001  5.0032768e-001  5.0279312e-001  3.8996390e-001
  9.4396602e-002  3.6058076e-001  3.8985026e-001  1.5578109e-001  9.4397656e-001  3.5913594e-001
  9.0582772e-001  5.8004792e-002  3.3247170e-002  2.1534129e-001  3.1981590e-001  2.3570573e-001
  2.8807079e-001  9.9387677e-001  7.6920988e-001  1.6391529e-001  6.3468654e-001  5.6214536e-002
  3.0736257e-001  7.7799493e-002  7.5387819e-002  3.4774324e-001  8.8846302e-001  4.3777745e-001
  7.1742039e-001  1.4847671e-001  4.6186555e-002  2.5698988e-001  1.2507927e-001  4.6802713e-001
  5.3414376e-001  4.5397987e-001  5.5633774e-001  1.1270558e-001  6.4398223e-002  3.4677509e-001
  1.7914941e-002  3.3323576e-001  8.1761718e-001  2.5790447e-001  5.6151753e-001  5.7688089e-001
  4.6428675e-001  6.7651692e-001  4.3725394e-001  8.4199157e-001  2.2357390e-001  9.4815735e-001
  6.1354142e-001  9.5799056e-001  4.9344820e-001  5.2086945e-001  8.4025524e-001  5.1432108e-001
  5.6520686e-001  4.7099877e-001  8.4706122e-001  6.4916545e-001  5.8925580e-001  4.4626497e-001
  3.0201853e-001  1.1536678e-001  2.8397227e-001  2.7163041e-001  1.6037069e-001  7.5749878e-001
  8.8574885e-001  1.9439908e-001  3.3873780e-001  8.8973033e-001  6.1594408e-001  3.9639654e-001
  7.6805931e-002  2.4092207e-001  9.3963131e-002  7.5448148e-002  9.1909273e-001  8.4037970e-001
  1.3970595e-001  6.0536835e-001  3.9741443e-001  8.5707098e-001  2.8429273e-001  3.0603512e-001
  9.6023498e-001  7.1839342e-001  3.9459536e-002  8.1890536e-002  8.4692660e-001  1.7124047e-001
  5.9291952e-001  1.6911360e-001  2.3891925e-001  6.0640115e-001  6.8721194e-001  7.1161502e-001
  3.2406916e-001  2.4405421e-001  4.4237443e-001  3.5901960e-001  8.9409796e-001  4.0566887e-001
  3.8318717e-001  2.8735808e-001  2.6373715e-001  8.5839665e-001  2.1783241e-002  9.0787578e-001
  8.8529863e-002  3.0375851e-001  3.5574571e-001  5.4139117e-003  8.0856818e-001  6.9421580e-001
  9.9863583e-001  1.7145664e-001  7.5139989e-001  4.5088005e-002  4.8103017e-001  1.2156715e-001
  5.2858487e-001  8.0084745e-004  1.1857862e-001  5.7849325e-001  7.5919585e-001  4.7613457e-001
  2.1625723e-001  9.3884695e-002  3.4390848e-001  6.9888267e-001  4.6115588e-001  7.8124413e-001
  8.3633138e-001  7.9766641e-001  4.7446191e-001  2.9846704e-001  3.0647883e-001  3.0265892e-001
  1.2554331e-001  5.7459890e-001  6.8316162e-001  3.1532839e-001  9.8817036e-003  5.7339544e-001
  3.2564467e-001  6.0560530e-001  3.0870017e-001  5.6500761e-001  5.3097581e-001  1.7392948e-001
  2.8772501e-001  8.0233301e-001  2.0740815e-001  8.8839456e-002  4.6110312e-001  4.6684175e-001
  4.3172270e-001  3.9802753e-001  7.1712010e-001  8.1583952e-001  7.6418903e-002  5.0234825e-001
  3.2205815e-001  1.6559673e-001  3.4912784e-001  3.4742954e-001  6.1439885e-001  9.7937950e-001
  4.4430249e-002  8.7552010e-001  7.9507812e-001  1.8036809e-001  8.4187115e-001  5.8411646e-001
  2.3070108e-002  6.8188887e-001  5.7606925e-001  2.9404052e-001  9.8438112e-001  4.5656848e-001
  3.5726530e-001  7.1563842e-001  8.8851145e-001  8.1438494e-001  3.9900942e-001  4.6622333e-001
  7.7485968e-001  6.4636007e-001  4.6960115e-001  3.4053799e-001  2.6476587e-002  8.8368276e-001
  4.7967917e-001  5.4661500e-001  2.6593140e-002  2.9882384e-001  1.9020169e-001  1.7584275e-001
  2.3203573e-001  5.7696386e-001  4.8053629e-001  5.6353989e-001  1.1047064e-001  9.1744203e-001
  5.7559860e-001  6.7153967e-001  7.1208001e-001  8.4965304e-001  9.0231752e-002  6.8438617e-001
  8.1196126e-001  8.8065771e-001  2.5997079e-001  3.0515572e-001  1.8842916e-001  6.0928187e-001
  4.3141150e-001  3.2101039e-001  2.5720524e-003  7.5244813e-001  6.1331083e-001  2.4234509e-001
  6.9774048e-001  7.5849967e-001  8.8628030e-001  3.7239658e-001  6.2767617e-001  4.0344435e-001
  6.7508388e-001  8.4406723e-001  8.8394008e-002  6.5733809e-001  1.0513755e-001  7.8163939e-001
  6.4733645e-001  2.6568651e-001  5.9816041e-001  3.9666909e-003  4.5991692e-001  9.7927955e-001
  8.6784936e-001  8.0101171e-001  7.8407872e-001  6.6324224e-001  1.2050061e-001  2.0751426e-001
  9.0981084e-001  7.1319135e-001  9.4873393e-001  7.0946425e-002  2.6056287e-001  5.1441732e-001
  6.1685732e-001  1.0438481e-001  1.3889091e-001  5.9353581e-001  9.4515914e-001  3.3156844e-001
  3.3536765e-001  4.1296869e-002  9.7003465e-001  9.6393418e-001  2.3980420e-002  5.8076437e-001
  5.1701481e-001  1.4754391e-002  4.9844203e-001  6.5300798e-001  1.2312355e-001  7.6643009e-001
  4.3948689e-001  3.9247613e-002  9.4455847e-001  6.4331956e-001  5.1710242e-001  6.9769047e-001
  4.7708635e-001  9.8822001e-001  8.3057884e-001  4.6387144e-001  9.7479965e-001  6.1832830e-001
  2.4068911e-001  2.9893087e-001  2.2456566e-001  1.2781450e-001  5.0376443e-001  2.3509797e-001
  4.3978456e-001  1.1408682e-001  5.0435031e-001  5.9624540e-001  9.0001575e-001  4.8336313e-001
  3.1070291e-001  5.6666730e-001  1.4304882e-001  9.6259241e-002  4.6653884e-001  4.2026526e-001
  8.9350415e-001  1.6777311e-001  5.7607462e-001  2.3111877e-001  2.3674980e-001  4.2744477e-001
  1.7384029e-001  6.9346164e-001  7.8713030e-001  4.4912492e-001  6.8458263e-001  2.6463560e-001
  9.4796597e-001  8.3255393e-001  1.7020263e-001  7.9423021e-001  2.1976926e-001  5.4993037e-001
  6.2962303e-001  7.0256189e-001  9.1214267e-001  6.0086821e-001  5.9288010e-001  5.4300680e-001
  2.8492542e-001  7.7111666e-001  1.2889883e-001  6.8664029e-001  7.0104306e-001  3.3087025e-002
  7.2524332e-001  6.2259497e-001  2.6570359e-001  6.9300915e-001  3.0748158e-001  3.2324941e-001
  1.0915720e-001  8.2086098e-001  5.2088045e-002  9.3945679e-001  3.6549224e-001  4.9796216e-001
  7.8168343e-001  2.4078540e-001  2.2241955e-001  1.8198163e-001  4.5396485e-001  2.2895571e-002
  8.0425355e-001  9.4441198e-001  4.8406663e-001  8.0394925e-001  8.5138120e-001  1.0911498e-001
  1.5274661e-002  4.9204834e-001  9.4544875e-001  8.7937424e-001  1.8627719e-001  2.9299838e-001
  3.7738328e-001  8.0789631e-001  4.5464783e-001  8.4533465e-002  7.4658253e-001  1.8749600e-001
  7.0787626e-001  4.4351408e-001  2.6219116e-001  2.9805902e-001  8.3305486e-001  7.7016005e-001
  6.4031460e-001  4.3445045e-001  5.5744069e-002  7.1254162e-001  2.1119623e-001  9.1604938e-001
  1.0350147e-001  9.5374388e-001  7.2147534e-001  2.1101348e-001  1.2472856e-001  1.8761908e-001
  3.6592000e-001  4.2327956e-001  9.7702417e-001  7.9063673e-001  4.9832318e-001  3.9786130e-001
  8.8988424e-001  3.1155521e-001  5.3699159e-001  7.3470084e-001  6.0026496e-001  6.2927684e-001
  1.5386452e-001  5.1916620e-001  7.5041698e-001  5.2849218e-001  5.2199698e-001  4.4705976e-001
  5.2250312e-001  9.2527743e-001  6.8053115e-001  9.3033082e-001  5.1021254e-001  7.7983283e-002
  3.7357826e-001  7.9509066e-001  7.0222295e-001  9.9305599e-001  3.0636043e-001  4.1085891e-001
  7.3303156e-001  6.9534930e-001  5.2680623e-001  8.5346571e-001  8.9626040e-001  3.1976957e-001
  7.0348260e-001  6.2209604e-001  3.0393643e-001  2.6327535e-001  5.3054098e-001  4.1021304e-001
  1.6022771e-001  2.4688308e-001  8.8879827e-001  9.4569824e-001  8.7195507e-001  6.4963055e-001
  7.7302850e-001  5.9179603e-002  1.0684239e-001  3.2345924e-001  4.5072491e-005  4.9848423e-001
  9.9848716e-001  4.5243290e-001  8.2627115e-002  3.1439000e-001  7.1006337e-001  3.2417277e-001
  5.8726953e-001  4.4930667e-001  6.2421767e-001  3.9799724e-001  2.3720588e-001  2.7391721e-001
  9.2229822e-001  4.0349836e-001  5.5487763e-001  9.4013258e-001  5.4955855e-001  4.1120749e-001
  3.9145782e-001  3.6274724e-001  2.3938924e-001  9.8792694e-003  1.7515890e-001  8.9765987e-001
  4.4712569e-001  6.1210048e-001  9.9147967e-002  7.9959926e-001  2.1796870e-001  1.5489492e-001
  8.3325191e-001  2.9683647e-001  4.0708118e-001  5.4468426e-001  8.6715338e-001  4.1672320e-001
  8.6961712e-001  4.2475780e-001  3.9364179e-001  1.8668733e-001  9.2523871e-001  3.0461607e-001
  8.3115356e-001  2.8815807e-001  3.1189453e-001  6.5518971e-001  1.7521491e-001  1.8491398e-001
  8.2911688e-001  2.7995480e-002  1.8608162e-001  8.0465646e-001  6.7471587e-001  4.8808971e-001
  3.4651731e-001  9.4788653e-001  2.3432198e-001  1.4650158e-001  1.4527314e-001  1.7756701e-001
  5.4673299e-001  7.4775947e-001  7.0107017e-001  1.8519285e-001  5.6928763e-001  8.0388562e-001
  9.4258720e-001  7.7729636e-001  7.7634082e-001  5.4353884e-001  3.8819187e-001  5.9611175e-001
  6.6219283e-001  8.6163277e-001  3.0981741e-001  6.5071248e-001  4.0168307e-001  8.9098761e-001
  5.1982477e-001  5.7713946e-001  7.2139233e-001  1.0490811e-002  6.0061194e-002  4.6619373e-001
  3.1136077e-001  3.5307924e-001  9.6709879e-001  7.2115142e-001  8.2689450e-001  8.1210152e-001
  5.6743771e-002  7.0921638e-001  9.5753539e-001  1.9158667e-001  6.5315525e-001  6.2528759e-002
  9.8483454e-001  3.5583065e-001  6.9391462e-001  6.0566848e-002  4.0927094e-001  4.0772555e-001
  5.6631141e-001  2.0934771e-001  5.8050044e-001  1.3190975e-001  9.1226429e-001  2.5639125e-001
  6.1821375e-002  6.6962172e-002  6.2202271e-001  1.9930493e-001  2.7086256e-002  1.8619904e-001
  6.3012611e-001  3.5099981e-001  9.1599957e-001  9.7411920e-002  7.6520572e-001  1.2283952e-001
  7.4063789e-001  4.1350568e-001  2.2315668e-001  7.8906799e-001  7.0784273e-001  9.0946442e-001
  9.0437184e-001  4.6684284e-001  3.3233783e-001  8.8687190e-001  4.4244882e-001  1.6076126e-001
  7.2724624e-001  6.5072291e-001  9.7012063e-001  3.9951154e-002  6.5878368e-001  2.1846740e-001
  5.3364626e-001  8.4631431e-001  8.1611231e-001  8.7118363e-001  7.9310161e-001  7.5225450e-001
  4.9469275e-002  5.3311803e-001  7.7315528e-001  5.5425178e-001  7.2957087e-001  4.4752354e-003
  1.4421448e-001  3.8077399e-001  7.5460671e-001  1.9339310e-001  1.6284314e-001  7.7179582e-001
  7.9010501e-002  4.3986992e-001  7.9754640e-001  3.4523430e-001  2.2821431e-001  2.8349384e-001
  5.4540391e-001  2.3017573e-001  3.6797157e-001  8.8539585e-001  8.2835193e-001  3.5372067e-001
  4.5111083e-001  1.3274805e-001  7.2020697e-001  8.5006173e-001  5.6697866e-001  1.5994195e-001
  1.0419776e-001  2.2232099e-001  6.5108152e-001  4.3542747e-001  5.0608059e-001  4.9291181e-001
  8.9478842e-001  5.0770939e-001  1.9505096e-001  4.7671762e-002  7.0813017e-001  3.1656525e-001
  2.3481370e-002  3.8268395e-001  2.9543811e-001  2.4466136e-001  2.2795366e-001  4.9494636e-001
  3.3251728e-001  3.9262330e-001  1.7963960e-001  7.9806227e-001  3.4689883e-002  8.5977713e-001
  2.3542434e-001  2.5843438e-001  6.3295560e-001  6.9055142e-001  7.1445445e-001  9.6919324e-001
  5.1124450e-001  2.1999283e-002  6.7204801e-001  7.6458322e-001  4.3762180e-001  2.1732957e-001
  2.1655475e-001  3.8503885e-001  1.0034335e-001  1.3717398e-001  8.3816184e-001  1.0540770e-001
  4.0876813e-001  7.8591521e-001  1.6687645e-001  7.4536126e-001  5.0806372e-001  1.5010426e-001
  5.7382742e-002  5.5305895e-001  3.1589638e-001  4.0101665e-003  1.4901121e-001  8.1841535e-001
  8.2038554e-001  7.6305376e-001  6.4544777e-001  2.3312565e-001  9.8733019e-001  8.9047648e-001
  5.0980813e-001  8.6551313e-002  2.9364177e-001  6.1275167e-001  6.2391990e-001  1.0902499e-001
  8.2966951e-001  1.4040155e-001  9.2023066e-001  4.0316203e-001  2.2139379e-001  8.6443677e-001
  7.8862607e-002  2.8245727e-002  3.0527630e-001  8.9255170e-001  4.1703855e-001  7.6589730e-002
  3.0138726e-001  3.0328872e-001  1.7791965e-002  1.9540993e-001  5.7425791e-002  7.0798078e-001
  1.6066639e-001  7.3137063e-001  3.4867125e-001  4.7974025e-001  2.1183270e-001  2.8957640e-001
  2.9867749e-001  5.5335992e-001  8.6243088e-002  9.7587428e-001  1.5653923e-001  2.6057847e-001
  5.0141252e-001  4.0987791e-001  2.5572277e-001  5.8993536e-001  9.1217195e-001  2.8033790e-001
  9.5262277e-001  1.8691200e-001  3.5909443e-001  2.9573908e-001  7.3417391e-002  5.9423538e-001
  2.4721285e-001  1.1866301e-001  4.3025582e-001  1.2013850e-001  4.7641256e-001  9.4284994e-001
  7.9103558e-002  6.6018192e-002  9.0397634e-001  6.8744189e-001  3.2186155e-001  9.0061866e-001
  3.5163198e-001  5.8140833e-001  7.3284804e-001  1.6298044e-001  3.7225154e-001  6.7361520e-001
  1.1434971e-001  5.5254229e-001  8.0188994e-001  8.9335221e-001  3.7416535e-001  9.6234197e-001
  7.4493489e-001  6.8435610e-001  3.1875720e-001  5.7374007e-001  4.3626472e-001  6.8176461e-001
  6.5498371e-001  7.7631836e-001  2.5058079e-001  8.5303603e-001  2.1803536e-001  7.4988169e-001
  2.1073920e-001  2.9937494e-001  7.7311490e-001  8.5894792e-001  9.3270743e-001  8.1218070e-001
  3.5639331e-001  6.3122261e-003  3.9708952e-001  5.4041089e-001  4.4763068e-001  6.3952463e-001
  2.0911775e-001  3.1186292e-001  3.2505394e-001  4.5368783e-001  9.5667644e-001  3.5067157e-002
  7.7204276e-001  4.2130442e-001  5.2454442e-001  2.1778607e-001  7.8147109e-001  5.7777358e-002
  6.3671054e-001  2.7137245e-002  6.9192246e-001  9.0127210e-001  1.4974505e-001  2.4737520e-001
  8.7563962e-001  2.3252734e-002  6.5654659e-001  8.7684056e-001  8.8382511e-001  5.4923838e-001
  5.8041366e-002  9.1491869e-001  6.8168760e-001  7.4126160e-001  9.2191644e-001  1.3570250e-002
  5.4387524e-001  9.5833912e-001  2.6333888e-001  4.9472755e-001  4.9740974e-002  4.5013504e-001
  6.2601562e-001  2.7461154e-001  9.7638365e-001  7.7395675e-001  1.3287252e-002  4.2918486e-001
  6.9737534e-001  5.4895199e-001  7.1629578e-001  2.1091096e-001  5.7160857e-001  3.9833063e-001
  7.8287163e-002  9.7925412e-001  5.4706491e-001  6.8962826e-001  7.9757543e-001  5.6853680e-001
  7.8629971e-001  6.8971466e-001  1.5147194e-001  2.8702106e-002  4.2318334e-001  9.9026035e-001
  3.8241667e-001  9.4176840e-002  2.0109211e-001  1.6090101e-001  2.3929030e-001  4.8725130e-001
  4.8137317e-001  8.2483726e-001  7.7807568e-002  4.5586049e-001  2.7841942e-001  9.0103516e-001
  3.7127727e-001  7.5558033e-001  5.9841552e-001  4.6968304e-001  5.5049267e-001  2.7491998e-002
  3.0249690e-001  8.8476838e-001  4.6514385e-001  2.0310270e-001  9.8421478e-001  1.5686289e-001
  6.8761099e-001  6.7363264e-001  9.7284589e-001  9.1873515e-002  3.8261373e-001  7.2164027e-001
  3.2551878e-001  4.4286417e-001  7.8701051e-001  6.4752648e-001  6.3025151e-002  3.9375797e-002
  5.5135759e-001  9.9419737e-001  6.8491411e-001  5.6841215e-002  5.5824998e-001  5.6314210e-001
  6.4888772e-003  9.3606670e-001  7.5956422e-001  3.4444281e-001  9.1110263e-001  2.8215220e-001
  2.9578981e-001  9.9211100e-001  3.4611192e-001  8.4343259e-001  8.2589650e-001  7.0542847e-001
  6.7574238e-001  8.3855366e-001  2.7747391e-001  9.8591760e-001  4.6906444e-001  6.5438845e-001
  8.1718208e-002  1.5352373e-002  4.3911852e-001  4.8165877e-001  8.0066454e-001  7.7994505e-001
  7.4832688e-001  1.2974562e-001  8.7395489e-001  4.8405825e-001  6.8159444e-001  4.1843564e-001
  8.8044945e-002  2.2434294e-001  4.0748720e-001  4.6173922e-001  8.6078337e-001  3.8207936e-001
  7.8840858e-001  3.6068207e-001  3.5902063e-001  7.8685843e-001  6.3746949e-001  5.1066896e-001
  9.5080973e-002  6.4982172e-001  6.2846595e-001  3.2117953e-001  3.3232385e-001  6.0706304e-001
  7.4877054e-001  4.9819036e-001  9.0197398e-001  3.7483005e-001  2.1447652e-001  1.6691146e-001
  1.6897247e-001  8.6810952e-001  1.4233929e-001  9.7718034e-001  8.3413924e-001  9.6046694e-001
  5.6119090e-002  4.4697775e-001  8.3461682e-001  5.1853486e-001  8.8572597e-001  9.4267432e-001
  7.8532400e-001  3.7969110e-001  4.8898629e-001  3.4588698e-001  4.1380580e-001  5.4980560e-002
  2.1563209e-001  5.9088046e-001  6.3176259e-001  8.3215012e-001  2.6078457e-001  1.0834691e-001
  3.0707458e-002  6.5746190e-001  6.4830879e-002  8.1114747e-001  3.7577406e-001  3.1134316e-001
  9.3391610e-001  8.5468548e-002  4.9667118e-001  2.9740727e-001  8.7285884e-001  2.7643181e-001
  3.1249728e-001  3.9431710e-001  6.7681802e-002  3.5480163e-002  6.4564314e-001  8.3100896e-001
  8.7265122e-001  9.3656951e-001  1.8398300e-001  3.2164229e-001  9.1421785e-002  4.3456916e-002
  3.8958206e-001  7.1912866e-001  8.8093013e-001  1.2349622e-001  1.4984444e-001  3.5751369e-001
  5.7353646e-001  9.8760291e-001  3.1986856e-001  1.1183196e-001  5.7483635e-001  4.2954357e-001
  7.6702383e-001  9.9981441e-001  4.8111345e-001  3.2390456e-001  8.4036668e-001  6.9399218e-001
  3.3892129e-001  8.6491005e-001  4.4427274e-001  2.4606412e-001  4.8239424e-001  8.0299332e-001
  3.1605586e-001  8.9589996e-001  2.5091360e-001  1.5725534e-001  9.9983183e-001  4.2117391e-001
  2.3224642e-001  8.7635857e-001  9.6686534e-001  4.1182991e-001  2.4374322e-002  2.2193009e-002
  7.0168767e-002  2.1496410e-001  3.1761407e-001  2.1652008e-001  3.7421552e-001  7.6456658e-003
  5.9529237e-001  6.0838340e-001  4.4640524e-001  6.3652502e-001  3.5096004e-001  6.6552110e-001
  1.5204198e-001  4.7473825e-001  5.3524435e-001  6.3794223e-001  7.1400923e-001  1.9797611e-001
  1.5266258e-001  5.6227467e-001  9.5701171e-001  8.4479436e-001  4.5513043e-001  5.8150019e-001
  8.3878238e-001  4.1833458e-001  6.1362242e-001  5.9818013e-001  8.6195636e-001  9.2193728e-001
  8.2210499e-001  2.8750214e-001  5.7392079e-001  6.0054507e-001  3.8206064e-002  8.5875418e-001
  3.4953248e-001  9.0706954e-001  5.3451276e-001  9.8710614e-001  4.3793792e-002  6.1998110e-001
  2.6848315e-003  2.4120467e-001  4.4784452e-001  9.2782111e-001  2.4697601e-001  2.5046051e-001
  6.5570989e-001  8.5721282e-001  4.5661750e-001  8.3469578e-002  8.0733321e-001  7.8699327e-001
  7.8413039e-002  5.6864822e-001  7.1299612e-001  3.4233599e-001  1.7049890e-001  2.3019121e-001
  7.6444165e-001  2.4501152e-001  1.5712325e-001  9.7077727e-001  2.4824430e-001  2.0947919e-001
  3.1740114e-002  7.9353385e-001  7.4205363e-001  3.7198326e-001  7.5308466e-001  4.4314338e-001
  8.8379812e-002  1.8374405e-001  3.1736279e-001  7.0622817e-001  8.6392609e-001  3.5191812e-001
  8.5583419e-001  1.8068892e-001  3.8709502e-003  9.5103979e-001  7.2534283e-001  9.7405923e-001
  2.2085581e-001  9.9371502e-001  7.2875904e-001  7.8014708e-001  8.4573439e-001  1.0369445e-001
  5.1437622e-001  7.0508621e-001  3.8915020e-001  5.6312805e-001  5.5961013e-001  6.2557439e-001
  5.9251271e-001  5.8790883e-001  2.0920344e-001  1.2154183e-001  8.2720859e-001  4.9976450e-001
  9.9052101e-001  5.5284300e-001  2.0426144e-001  6.0986636e-001  8.5617057e-001  6.4203134e-001
  9.0669870e-002  6.7660212e-001  3.5433052e-001  5.5663131e-001  9.8334240e-001  4.8791516e-001
  4.7181069e-002  6.4505633e-001  2.4750398e-001  5.1543046e-001  2.1337230e-001  1.5691918e-001
  8.2555215e-001  7.7695764e-001  3.7589018e-001  2.8223030e-001  9.6823837e-001  1.8851699e-001
  3.8168454e-001  8.9062336e-001  8.5155797e-001  4.1996349e-002  9.5296332e-001  7.1985150e-001
  6.2520540e-001  4.7297722e-001  7.3750009e-001  2.9311192e-001  8.3524662e-001  9.5680818e-001
  4.1577754e-001  5.8024904e-001  6.9944450e-001  9.1463158e-001  5.2471320e-002  5.5100898e-001
  2.1954438e-001  2.5193286e-001  7.4753076e-001  4.4550594e-001  8.9182191e-001  6.3613134e-001
  3.2607599e-001  7.3556766e-001  7.0824005e-001  6.8256421e-002  2.4712737e-002  8.5174468e-001
  1.7302781e-001  9.8102520e-001  6.7295324e-001  8.2226741e-001  9.3089135e-001  1.4377261e-001
  1.4311143e-001  4.7264360e-002  2.9922017e-001  5.3216782e-001  2.4172374e-001  3.5443297e-001
  7.2042331e-001  5.8805884e-001  9.0453534e-002  9.4416069e-001  7.4539433e-002  6.1111273e-001
  6.4820279e-001  1.4217022e-001  3.9616265e-001  2.1394676e-002  1.8478367e-001  4.5009684e-001
  4.1815754e-001  6.9834563e-001  3.7698820e-001  7.1145970e-001  8.3021214e-001  1.1602502e-001
  4.5215293e-001  6.1832036e-001  3.9421397e-001  5.7642076e-001  6.6550373e-001  9.4305784e-001
  6.7165986e-001  9.5821777e-001  6.3102311e-001  1.0643438e-001  9.2311217e-001  5.6799257e-001
  6.4708086e-001  3.7439736e-001  9.6766819e-001  3.9183106e-001  6.1155501e-001  4.7188890e-001
  8.6926019e-001  9.3465735e-001  8.8140058e-002  2.9905070e-001  2.3689777e-001  8.2988280e-002
  6.0282004e-001  9.4069462e-001  4.6467836e-001  5.5088278e-001  7.4205178e-001  9.8131628e-001
  6.3182941e-002  4.9115325e-001  1.2794167e-001  2.1581987e-001  8.2139996e-003  1.7110817e-001
  1.9382373e-001  2.2568400e-001  1.4843203e-001  5.3368993e-001  8.6361449e-001  2.9936809e-001
  1.6471293e-001  9.8065474e-001  1.2038473e-001  8.8231703e-001  8.0967649e-001  1.6920452e-002
  7.4526793e-001  8.3365721e-001  9.2201132e-001  6.1357730e-001  1.9500026e-001  5.7756234e-001
  3.2849856e-001  2.6493194e-001  7.3097074e-001  3.2016006e-001  5.5811465e-001  5.3797445e-001
  2.9428980e-001  4.3836142e-002  5.8718152e-001  8.9500357e-003  4.8377151e-001  4.4554347e-001
  3.1980896e-001  1.4891441e-001  5.8580406e-001  5.2797680e-002  8.7420449e-001  3.7266054e-001
  7.6523304e-001  1.5754311e-001  4.7376503e-001  8.4499886e-002  3.8186712e-001  5.7352996e-001
  3.3559915e-001  6.8553201e-001  1.9157905e-001  6.7442012e-001  4.3815753e-001  1.4073989e-001
  7.1602602e-001  2.9054136e-001  7.0672236e-001  7.2718879e-001  9.3498852e-001  8.9009112e-001
  7.2780067e-001  3.3526407e-001  2.8624224e-001  8.4666199e-001  6.6520813e-001  9.7743713e-001
  3.0036957e-001  4.5378990e-001  2.1806978e-001  1.2740552e-003  7.9532321e-001  6.7488961e-001
  1.2168795e-001  9.7313022e-001  2.7655676e-001  5.3788329e-002  9.3262678e-001  6.7879983e-001
  6.8560955e-001  1.6901832e-002  3.9055584e-001  7.5397554e-001  6.1233185e-002  6.1515466e-001
  2.5784208e-001  3.0363532e-001  5.5158132e-001  4.1987417e-001  9.7681123e-001  9.9899189e-001
  3.7442426e-001  3.6700056e-001  9.2328266e-001  5.3884092e-002  7.6617278e-001  4.3685939e-001
  6.3546110e-001  1.7632139e-001  7.4490539e-001  6.1392837e-001  1.1807538e-001  2.5674814e-001
  5.0352447e-001  9.7770605e-001  7.1553877e-001  7.8492481e-001  9.6972484e-001  7.7323292e-001
  9.3481796e-001  1.2825821e-001  5.0660225e-001  6.4605330e-001  4.3969471e-001  5.6686496e-001
  8.6636625e-001  4.8389718e-001  1.6918042e-003  3.0526009e-002  1.2936496e-002  5.1063460e-001
  4.2772798e-001  9.2460485e-001  3.0354887e-001  5.1770112e-002  8.7148359e-001  8.8904684e-001
  7.1832524e-001  2.1213083e-001  1.8579970e-001  6.6658805e-001  1.5296009e-001  7.1766947e-001
  7.3004716e-001  3.9986310e-001  8.7933179e-001  6.1534934e-001  6.0886836e-001  3.7896964e-001
  1.5091488e-001  4.4527579e-001  1.3023713e-001  3.7572485e-001  6.8952754e-001  1.3070889e-002
  3.8454673e-002  8.3600070e-001  3.8529264e-001  4.6408174e-001  6.0920423e-001  6.5207907e-001
  7.7668543e-001  8.3659474e-001  8.0476151e-001  5.7937971e-001  2.7870265e-001  2.9305173e-001
  2.0116334e-001  8.9995507e-001  9.1951635e-001  1.6296287e-001  2.1917715e-001  9.4511817e-001
  7.5084060e-001  7.8977611e-001  3.9801161e-002  3.7690222e-001  4.7742688e-001  4.5577232e-001
  7.7425309e-001  9.7134441e-001  4.5172056e-001  6.7177984e-001  1.7212180e-001  7.1201551e-001
  5.6939717e-001  3.6521615e-001  5.1806132e-001  3.2173853e-001  2.0568983e-002  5.4228571e-001
  3.2826651e-001  3.9288295e-001  2.8327877e-001  2.4385692e-001  4.8795345e-001  7.0178542e-001
  4.8619830e-001  1.2931451e-001  8.4650124e-001  5.8806477e-001  8.1021158e-001  6.4394690e-001
  3.1393714e-001  5.2137529e-001  5.9218930e-001  3.3910459e-001  5.1526329e-001  6.4044470e-001
  9.3422310e-002  9.0391669e-001  3.6405262e-001  8.3151558e-001  1.9603508e-002  6.3886484e-001
  2.9073890e-001  3.9672643e-001  4.0518671e-001  2.7301490e-001  6.5216353e-001  9.3553105e-001
  8.0205959e-001  6.3015425e-001  4.2549826e-001  6.1798720e-001  2.8654507e-001  7.4193881e-002
  2.5931018e-001  1.3291396e-001  8.6339667e-001  5.7852282e-001  3.2018167e-001  4.6673078e-002
  2.5315935e-002  8.6079742e-002  3.7412328e-001  3.9959039e-001  1.3748403e-001  9.9226778e-001
  3.1933797e-001  4.2142611e-001  1.8314816e-001  9.7841159e-001  2.7115060e-001  7.4424675e-001
  9.3920950e-001  2.6093240e-001  3.4735093e-001  3.4873021e-001  6.5982933e-001  2.3986000e-001
  2.0864502e-001  8.1337193e-001  4.2648389e-001  8.4409138e-001  7.9224085e-002  4.9048739e-001
  8.4540676e-001  3.0323511e-001  7.5360774e-001  1.6047023e-001  1.0951019e-001  3.7477398e-001
  7.6029770e-001  7.0490821e-001  7.8897504e-001  5.5717201e-001  9.5102900e-001  2.8196338e-001
  6.6820027e-001  9.6214754e-001  5.0230195e-001  9.3135493e-001  5.2781361e-003  9.0068983e-001
  5.3386104e-001  4.1352965e-001  3.4124498e-001  4.7192148e-001  4.0749478e-001  9.0092101e-001
  7.1635811e-001  5.1665290e-001  1.5743284e-003  3.0557120e-001  5.7701572e-001  2.6823351e-001
  4.1038574e-001  1.2363388e-001  6.9264145e-001  9.0709851e-001  3.6867641e-001  9.2409387e-001
  1.8337119e-001  8.9880331e-001  3.6286131e-001  7.6028056e-001  7.2664481e-001  5.7162135e-001
  5.8833524e-001  9.3141931e-001  9.3406521e-001  5.8033464e-001  7.3863401e-001  1.8878013e-001
  6.3958052e-001  9.3474235e-001  3.1826327e-001  8.7168638e-001  5.7502257e-001  6.9826004e-002
  9.6688429e-001  2.7447293e-001  9.7972736e-001  3.4229378e-001  1.7844839e-001  7.2075227e-002
  7.5756810e-001  4.4868578e-002  5.6816492e-001  9.3695875e-001  3.0257666e-001  6.6390739e-002
  2.3750758e-001  5.8004291e-001  2.7281468e-001  8.9774685e-001  2.8297367e-001  9.9677484e-001
  4.1758555e-002  9.2688985e-001  6.7122793e-001  5.6433547e-003  8.5075325e-001  3.1284956e-001
  7.8386023e-001  7.2935921e-001  4.3642464e-001  2.5662780e-002  7.1576573e-001  5.0852877e-001
  4.2578843e-002  8.1002530e-001  7.7984737e-001  7.3894257e-001  4.4212304e-001  2.3820121e-001
  1.0428228e-002  7.9597865e-001  5.3984464e-001  7.1175274e-002  9.9470055e-002  6.3175316e-001
  2.4330388e-002  4.9079785e-001  8.8271044e-001  5.2564684e-001  9.5660110e-001  2.9176157e-001
  6.7582364e-001  8.5185205e-001  6.3336431e-001  8.7463091e-001  6.0653016e-001  5.2298906e-001
  4.5963196e-001  5.7849244e-002  5.0934429e-001  1.8420146e-001  9.6778835e-001  9.8193509e-001
  3.8522391e-001  3.1033107e-001  7.5085533e-001  2.1696669e-001  1.5095738e-002  7.5257475e-001
  2.2535502e-001  9.6361410e-001  4.3224222e-001  2.3429553e-001  1.0612664e-002  9.5761939e-002
  9.8783116e-001  1.9122743e-001  1.1048598e-001  2.6746657e-002  6.2349483e-001  6.3763572e-001
  9.9694040e-001  1.2092542e-001  6.5856636e-001  6.0017629e-001  2.5825828e-001  7.3877509e-001
  2.2948382e-001  1.7970041e-001  8.7235738e-001  4.0011160e-001  5.2784747e-001  6.7452657e-001
  8.9380122e-001  2.1010489e-001  8.8468821e-001  9.2505060e-001  4.7598248e-001  1.5870063e-001
  4.0141980e-001  1.1485520e-001  2.1285689e-001  6.8415749e-001  4.6602727e-001  4.6995849e-002
  5.2792769e-001  7.2535466e-001  3.8082689e-001  7.5125038e-003  5.9760543e-001  9.0773127e-001
  6.2278686e-001  4.0515269e-001  4.3526907e-001  7.0522135e-001  7.3372729e-001  3.0520871e-001
  9.7318633e-001  4.7061283e-001  5.1929000e-002  9.9699475e-001  5.0722017e-001  3.6765512e-001
  7.8905279e-001  1.2271667e-001  6.6945079e-001  3.6487591e-001  1.1135263e-002  4.0219941e-001
  6.1695486e-001  3.2197580e-003  8.5160113e-001  9.8946648e-001  4.9463205e-002  3.8653681e-001
  1.3819411e-001  4.0471976e-001  4.2014390e-001  6.6390418e-001  9.4912869e-001  6.6480892e-001
  1.5855709e-001  6.6233478e-001  8.6419158e-001  5.2805849e-002  6.9173471e-001  8.0608878e-001
  6.1142387e-002  3.2230006e-001  1.4460852e-001  9.4092507e-001  6.6777792e-001  2.9562314e-002
  5.3275750e-001  5.8853307e-001  9.9266803e-001  2.1063805e-001  4.2043958e-001  9.9792083e-001
  7.5758775e-001  9.7875394e-001  7.8751888e-001  9.9923235e-001  9.7354212e-001  5.2080455e-003
  2.9696782e-002  7.1366374e-001  9.0481457e-001  7.6185750e-001  1.2690435e-001  6.3471561e-001
  8.6743654e-001  2.3462504e-001  4.9750059e-001  6.8177597e-001  6.3270457e-001  1.1128432e-001
  2.4890955e-001  2.0024330e-001  4.5134057e-002  9.5129978e-001  2.5753519e-001  7.8381027e-002
  1.1375875e-001  2.7239072e-001  5.2182780e-001  8.4262811e-001  7.5629752e-001  1.7946102e-001
  1.9615426e-001  7.0105132e-001  7.9199326e-001  8.5127100e-002  7.1538814e-001  3.9448600e-001
  6.1601293e-001  7.6422932e-001  1.9285723e-001  2.6593624e-001  8.1282762e-001  5.9288000e-001
  2.4747578e-001  8.1111268e-001  9.8806980e-001  3.6930916e-003  9.2578713e-001  5.6899234e-001
  4.9948401e-001  6.9152404e-001  1.8771094e-001  6.6359816e-001  3.3515762e-001  5.0288017e-001
  5.0236762e-001  5.3659576e-001  3.5341134e-001  6.2375310e-001  2.7133798e-001  9.4270174e-001
  8.5655960e-002  5.2531416e-001  4.0732246e-001  1.3112729e-001  9.9773840e-001  6.6716766e-001
