  1.6499930e-001  8.4286755e-001  3.1710910e-001  2.0740576e-001  4.4222923e-001  3.1273320e-001
  1.0462524e-002  7.3212954e-001  1.6711422e-001  6.0415583e-001  3.1715731e-001  6.8973883e-001
  1.9300677e-002  6.5476145e-001  6.1597751e-001  8.3774126e-001  7.6649669e-001  1.2934366e-001
  7.1068890e-001  6.1279459e-002  7.9750250e-002  5.3196685e-001  4.5338665e-001  4.7098299e-001
  6.9912588e-001  7.2579975e-001  6.6340077e-001  3.0489387e-001  3.6399502e-001  7.2439870e-001
  9.2923156e-002  2.8058378e-002  9.1785897e-001  9.6600699e-001  7.4839340e-001  7.3308369e-002
  2.1128225e-001  8.1354989e-002  2.7375571e-001  2.8627531e-001  2.4856544e-001  1.4113588e-001
  6.8432252e-001  4.0239464e-001  3.0524897e-002  2.9940381e-001  8.7777681e-001  6.3427180e-001
  6.1183395e-001  9.8822667e-002  9.7448000e-002  8.4906602e-001  6.3877779e-002  8.6474401e-001
  2.9009073e-001  9.3451955e-001  4.8748293e-001  8.8628923e-002  2.2435531e-001  4.7303903e-001
  2.2582718e-001  8.9524626e-001  9.5081552e-001  8.7680971e-001  4.0448233e-001  1.7514840e-001
  5.0396200e-001  1.5087758e-002  5.2151012e-002  5.0691620e-001  1.2552785e-001  8.4033472e-001
  5.5095393e-001  6.6784258e-001  3.7648691e-001  9.1186986e-001  3.7153010e-002  9.2893169e-001
  5.9096869e-001  3.3959107e-001  4.7529394e-001  6.2421706e-001  5.4857096e-001  5.1221454e-001
  6.6383355e-001  8.5298914e-001  1.7946259e-001  1.7178347e-001  8.6398741e-001  6.5807101e-001
  4.5499264e-001  9.2199936e-001  8.3559209e-001  9.5727670e-001  7.9517087e-001  6.9727063e-002
  2.1536033e-001  2.0308404e-001  1.0015706e-001  5.1484876e-001  6.2204050e-001  7.9337673e-002
  7.7087192e-001  3.5364734e-001  7.2887969e-001  5.4184501e-001  7.1009527e-001  1.4152586e-001
  5.5639775e-001  2.6303925e-002  9.2759762e-001  6.2920050e-001  9.1344391e-001  8.4908245e-001
  2.2983103e-001  1.8224955e-001  7.4102642e-001  5.9038179e-001  4.2024221e-001  2.7278266e-001
  1.1214706e-001  6.9831629e-001  8.2169175e-001  8.4906373e-001  4.9740588e-001  4.3108801e-001
  3.7068088e-001  6.9184525e-001  1.1459241e-001  2.1402615e-001  8.9214740e-001  1.6750271e-001
  9.8703787e-001  4.3437272e-001  3.2516414e-002  7.7027080e-001  2.0011614e-001  3.8183534e-001
  4.3290905e-002  9.4396088e-001  2.3491607e-001  5.2444398e-001  1.5855799e-001  7.6715111e-001
  1.2181277e-001  1.9757331e-002  7.9871991e-001  7.6268398e-001  8.4783151e-002  9.3325726e-001
  9.8265237e-002  4.4245842e-001  7.7299152e-001  6.9397357e-001  7.6429571e-001  5.0760294e-001
  7.1925349e-001  8.1300481e-001  2.1964269e-001  7.0672790e-001  5.1488555e-001  1.5313891e-001
  8.8811553e-001  9.2103995e-001  4.0514996e-001  7.1120387e-001  7.2868982e-001  2.5699665e-001
  7.8680299e-001  8.4518658e-001  7.7873101e-001  2.5016511e-001  5.1224401e-001  4.6802476e-001
  8.2142579e-001  5.6989556e-001  6.4044789e-001  4.2489619e-001  4.9166328e-001  1.1958305e-001
  8.2810125e-001  8.8958610e-001  2.3387036e-001  6.0726539e-001  5.9226717e-001  9.1504802e-002
  8.2067926e-001  5.2906036e-001  5.3494702e-002  7.1422263e-001  7.9060721e-001  9.6224511e-002
  1.7349624e-001  6.4909486e-001  7.9113212e-002  6.6481904e-001  6.6355955e-002  2.9305398e-001
  8.6126412e-001  6.0531637e-001  8.1055871e-001  5.9235501e-001  5.1651092e-001  9.8904496e-001
  6.0647854e-001  2.6190202e-001  4.6687824e-001  4.3075292e-001  2.2676409e-003  4.7345081e-001
  2.7647453e-001  8.0497855e-001  3.0320741e-001  2.9287810e-001  4.4433749e-001  5.2317801e-001
  3.0860160e-001  2.4184408e-001  3.4614646e-001  2.9824658e-001  5.2289269e-001  3.2277284e-001
  7.6785005e-001  1.8282825e-001  9.5235906e-001  2.8677188e-001  1.0750802e-001  6.9395835e-001
  4.1472973e-001  7.3647013e-001  6.2006708e-001  9.0851058e-001  9.7236021e-001  8.7890209e-001
  7.9939698e-001  7.3654421e-001  1.9862667e-001  6.7012809e-001  3.1366692e-001  2.8261653e-001
  2.3413262e-001  2.6721027e-001  7.6888584e-001  7.7263204e-001  6.9289486e-001  4.4874707e-001
  4.2911841e-001  9.6626665e-001  3.4347333e-001  1.6947194e-001  7.7074663e-001  3.6023817e-001
  2.9871193e-001  3.8529908e-001  8.0677698e-001  1.4093933e-001  5.2821147e-001  7.3821657e-001
  2.9750174e-001  5.5987848e-001  3.0099557e-001  1.4465524e-001  4.8145235e-001  1.7444746e-001
  2.1782667e-001  8.5826076e-001  7.8268795e-001  5.5574670e-002  7.9769150e-001  8.3431641e-001
  5.2828773e-005  2.6204238e-001  2.5409383e-001  9.0209514e-001  3.1403300e-001  4.6931323e-003
  2.7460917e-001  1.4870910e-001  2.9471975e-001  4.2892738e-001  4.2410953e-001  7.5441102e-001
  4.8215411e-001  1.3130475e-001  2.3355747e-001  1.2815959e-002  2.0428347e-002  3.5746071e-001
  5.7454266e-001  4.6714443e-001  4.3695643e-001  8.0304882e-001  6.4094146e-001  8.5049603e-001
  2.0267939e-001  7.5787746e-001  8.9239967e-001  8.5751300e-001  3.8246366e-001  3.6464211e-001
  8.8104268e-001  2.4045532e-001  9.3680103e-001  1.5520083e-001  3.3954647e-001  9.0058081e-001
  2.9061356e-001  1.0857216e-001  8.1842287e-001  6.5954286e-001  1.9406074e-001  7.8209318e-002
  7.8175709e-001  6.6663193e-001  2.9098837e-001  4.6015492e-001  5.7753321e-001  5.9121054e-001
  8.6923024e-001  9.2183324e-001  7.8424636e-001  4.4645808e-001  4.4735416e-001  4.7508097e-001
  5.8471563e-002  6.2220289e-001  7.9958210e-001  7.1316313e-001  1.3083591e-001  4.0891724e-001
  6.0308787e-001  5.8031798e-001  6.4032250e-001  5.0770153e-001  3.3413442e-001  4.0280227e-001
  4.8937023e-001  8.3442023e-001  5.1059742e-001  5.0578280e-001  2.8213844e-001  9.8950323e-001
  9.2398216e-001  1.5579944e-001  4.4122167e-001  7.7711442e-001  2.6503161e-001  7.9971184e-001
  6.9464664e-001  2.9618580e-001  3.0666164e-001  7.8768561e-001  7.5464668e-001  9.6141727e-001
  7.1584582e-001  1.7961534e-001  2.1527963e-001  7.1880263e-002  4.2734028e-001  7.7789380e-001
  4.7729588e-001  2.5766781e-001  2.0087195e-001  8.5330625e-001  4.6781430e-001  7.0114999e-001
  3.1790213e-001  8.8510662e-001  2.6729351e-001  7.2626886e-001  5.1450752e-001  7.7677016e-001
  3.2520912e-001  2.6895617e-001  7.7605791e-001  2.0555739e-001  4.2505437e-001  8.3553281e-002
  2.1080185e-001  9.0149820e-001  3.2529049e-001  4.4614658e-001  7.9254844e-001  4.1162876e-001
  2.1752022e-001  9.5274445e-002  7.1571107e-001  6.8751200e-003  8.7835876e-001  5.6977095e-001
  3.4247891e-001  7.6156134e-001  3.4203765e-001  2.0574508e-001  7.4966129e-001  5.3158874e-001
  8.8175181e-001  1.3117706e-001  9.3655222e-001  7.9274892e-001  8.5791612e-001  5.8495111e-001
  4.9216027e-001  7.4792801e-001  3.4813263e-001  5.3811417e-002  8.9557816e-001  3.9089641e-001
  5.0362986e-001  1.3484335e-001  4.2124002e-001  2.0763476e-002  7.6445533e-001  8.8388740e-002
  4.2384922e-001  6.7293228e-001  9.5639295e-001  6.3163396e-001  9.8132275e-001  7.9359193e-001
  6.5340657e-001  3.7631806e-001  6.8737938e-001  3.8239365e-001  7.2312133e-001  3.8303543e-001
  7.6532071e-001  2.0263019e-001  8.2794669e-001  8.6061208e-001  5.9058874e-001  4.6253007e-001
  4.6483017e-001  9.0848616e-001  7.2225013e-001  7.7364415e-001  1.9337654e-001  8.6285700e-001
  2.5775718e-001  4.8198738e-002  8.6986105e-001  3.1802978e-001  7.6977649e-001  5.1731691e-001
  6.5742573e-001  1.6601649e-001  3.2525816e-001  1.5043329e-001  6.0782686e-001  7.0581147e-001
  2.8549148e-001  5.6008344e-001  4.9788698e-001  6.8703428e-002  8.1459714e-001  7.5928548e-001
  6.6598167e-001  9.8710611e-001  3.2731203e-001  5.3379304e-001  5.5814511e-001  8.6636835e-001
  4.4852883e-001  4.3109257e-001  1.4753753e-001  9.6966815e-001  6.0411252e-001  4.2821374e-001
  9.5225109e-001  6.7249445e-001  4.4639753e-001  5.1951593e-001  2.4881742e-001  7.2345597e-001
  5.4047258e-001  5.3010053e-001  3.4444894e-001  2.4427183e-001  7.3103178e-001  6.4497381e-001
  4.5088530e-001  4.7514324e-001  2.2741743e-001  7.5064917e-001  2.0294610e-001  6.9459065e-001
  2.9629664e-001  4.2250535e-001  3.9850762e-001  2.4092366e-001  2.9718697e-001  2.8416713e-001
  2.7805085e-001  4.2172090e-001  6.8629984e-001  4.4883603e-001  2.3529487e-001  8.8695159e-002
  5.7515904e-001  3.1302166e-001  6.4907918e-001  6.9179559e-001  7.7876459e-001  5.8760261e-001
  1.6723926e-001  1.4156931e-001  3.5846525e-001  4.2579318e-001  4.7461095e-001  5.8141507e-001
  4.5536827e-002  6.2796237e-001  3.2992739e-001  1.5884036e-002  7.7046395e-001  5.4589935e-001
  2.7771989e-001  4.1034826e-003  3.0453597e-001  4.8077791e-001  5.7166246e-001  4.8382278e-001
  7.2708190e-001  9.4806962e-001  1.1097197e-001  6.8411554e-001  8.3209475e-001  6.9685158e-001
  5.2392307e-001  2.5192592e-001  9.3308489e-001  6.1328219e-001  3.5223564e-001  1.0019089e-001
  4.5824603e-001  5.9484857e-001  6.3025781e-001  2.2623394e-001  9.2787606e-001  9.4681092e-002
  3.5531198e-001  8.4443659e-001  2.2517002e-001  1.8543270e-001  1.6217008e-001  3.9992443e-001
  4.5301857e-001  2.4329604e-001  9.0791965e-001  7.4211889e-001  3.0310080e-001  3.8760655e-001
  6.0566953e-002  5.2553224e-001  5.2270731e-001  9.3846022e-001  8.1980717e-001  9.5769493e-001
  3.7791373e-001  9.8740463e-001  1.6123281e-001  8.7585117e-001  1.5159426e-001  1.9861865e-001
  9.5278744e-001  7.8910534e-002  2.2656874e-001  9.2374176e-001  6.1863931e-001  2.6699906e-002
  7.2159008e-001  7.9331682e-001  9.2771767e-001  3.6357177e-001  4.1049654e-001  1.7630484e-002
  6.5047193e-001  1.1041093e-001  6.7543159e-001  8.0778283e-001  4.0997950e-001  4.1673199e-001
  5.5031434e-001  4.0779531e-001  7.5326173e-001  4.5661226e-001  1.9781437e-002  1.0532937e-001
  2.8147614e-001  9.5004921e-001  5.8757741e-001  6.5825655e-001  8.8170724e-001  6.9284692e-001
  4.4798782e-001  7.3508001e-001  7.7676754e-001  1.3054764e-001  5.0153699e-001  7.0228196e-001
  5.3543016e-001  8.6006901e-001  4.3383716e-001  1.6025184e-001  7.8265741e-003  5.7761695e-001
  8.5916776e-001  4.7945725e-001  8.4298661e-001  4.1961866e-001  2.1684340e-001  4.3830757e-001
  7.8318619e-001  2.3732174e-001  8.1035619e-001  7.6660767e-002  2.0851450e-001  2.2766833e-001
  3.9361183e-002  2.0901030e-001  9.4451856e-001  3.4979284e-001  5.4746534e-001  6.8143271e-002
  3.5430421e-001  9.3995284e-001  9.2699159e-001  8.6225847e-001  8.5371808e-001  4.8550826e-001
  7.3417745e-001  2.8394675e-001  8.7793616e-002  1.1448163e-001  7.6482381e-002  8.4364335e-001
  9.7321882e-001  3.5116351e-001  2.9387093e-001  3.8538604e-001  7.7853098e-001  7.4616409e-001
  3.2153817e-001  5.0524932e-001  3.5550823e-001  7.0502801e-001  1.7854598e-001  6.9090256e-001
  7.1935231e-001  6.2589741e-001  8.9610792e-001  7.1243872e-002  6.6551518e-001  6.7633051e-001
  1.3184732e-001  6.7872216e-001  9.1050289e-001  3.7682758e-001  3.4174049e-001  7.9762631e-001
  2.8960280e-003  1.0466211e-001  9.2677703e-001  4.6517374e-001  5.1175243e-001  1.8558978e-001
  7.0082990e-001  5.4971872e-001  1.0887246e-001  3.5439506e-001  4.1636793e-001  3.9992465e-001
  6.1895914e-001  8.8330118e-001  4.1888591e-001  2.3546618e-002  9.8396390e-001  9.1588742e-001
  7.5685062e-001  1.1499807e-001  5.7055418e-001  1.5310205e-001  5.8633944e-001  5.7236206e-001
  1.7023534e-001  5.0183742e-001  3.1430173e-001  8.7830734e-001  1.4148056e-001  1.5134865e-001
  1.4183760e-001  8.1044007e-001  5.7750054e-002  9.1285280e-001  7.7878480e-001  5.5684644e-001
  1.2086920e-001  1.0115027e-001  4.5302782e-001  6.1118961e-002  5.7212555e-001  9.7164260e-001
  6.5176747e-002  6.8525322e-002  6.8474696e-001  6.9848559e-001  3.8469800e-001  1.1297315e-001
  1.9426676e-001  5.9785590e-001  9.8304525e-001  3.7515108e-001  1.4513992e-001  6.3992001e-001
  8.1733759e-001  4.6379802e-001  5.9958396e-001  8.1889158e-001  7.0302608e-002  3.1884844e-001
  8.8170216e-001  5.3828453e-001  8.4357081e-001  6.5821393e-001  9.0017957e-002  4.4515242e-001
  4.0847431e-001  5.1214878e-001  4.7099469e-002  2.4412525e-001  4.7411932e-002  5.0952478e-001
  3.0265554e-003  4.1922003e-001  5.4199657e-001  2.3251949e-001  2.1360827e-001  6.0398401e-001
  9.7002738e-001  8.0204075e-001  7.7983368e-001  5.1029068e-001  2.9525336e-001  9.1732549e-002
  8.3198533e-001  7.2433865e-001  4.6898154e-001  3.4113048e-001  8.8928784e-001  8.0636556e-001
  4.9586532e-001  9.0141739e-001  4.4395461e-001  8.5462233e-001  6.2895334e-001  5.4830299e-001
  6.5044034e-001  5.6954310e-001  7.9518736e-001  2.4965892e-001  6.2690756e-001  9.0735961e-001
  3.1300603e-001  6.1145923e-001  1.2603991e-001  3.9130887e-001  4.4806550e-002  9.6047642e-001
  3.2644215e-001  4.5652432e-001  1.4974957e-001  1.5671549e-001  4.4814315e-001  6.0570251e-001
  5.5138945e-002  8.7777560e-001  8.6444632e-002  9.1470060e-001  1.6022054e-001  8.6690022e-001
  9.3194966e-001  1.8940956e-001  1.0041213e-001  7.6597292e-001  6.9191014e-001  1.6323197e-001
  6.3366076e-001  3.5742994e-001  5.3749688e-001  1.6990314e-001  1.5714527e-001  7.9270034e-002
  7.7650028e-001  4.4100044e-001  5.6154807e-001  9.3932313e-001  5.4448284e-001  4.1956911e-001
  1.2838809e-001  3.5759326e-002  7.3669890e-001  7.5920354e-001  9.3400447e-001  3.8636867e-001
  8.3680429e-001  9.1981645e-001  2.1343392e-001  7.1300146e-002  6.2903880e-001  7.6412068e-001
  6.9613861e-001  5.2914451e-001  9.7309448e-001  8.1696433e-001  6.6763687e-001  8.7969326e-001
  7.4366648e-001  5.5465630e-001  1.9349874e-001  7.6230061e-001  8.6353113e-001  1.7753422e-001
  9.0814494e-001  4.7838828e-001  4.1911997e-001  1.8678418e-001  6.3443332e-001  4.0591327e-001
  1.8450692e-001  5.8741968e-001  6.8900815e-001  7.0965964e-001  7.0029232e-001  9.8825743e-001
  5.3602979e-001  7.4793394e-001  5.1835478e-001  4.1316715e-001  1.1173928e-002  8.7182791e-003
  8.8883670e-001  7.9961997e-001  6.1830443e-001  8.2849834e-001  8.7569995e-001  1.3026742e-001
  4.7622002e-001  4.7968435e-001  9.9388992e-001  5.4520647e-001  7.2729621e-001  5.9146546e-001
  2.7321804e-002  6.0965994e-001  7.5720936e-001  6.9858421e-001  2.5439425e-002  7.6115032e-001
  3.5806748e-001  8.6757948e-001  7.3205234e-001  4.9772813e-001  3.0142297e-001  8.2684687e-001
  2.8106929e-001  8.4947523e-001  4.3426817e-002  9.4377274e-001  3.3963515e-001  1.8888385e-001
  7.1930673e-001  9.8462707e-001  4.2269417e-001  9.3585585e-001  1.7765892e-001  5.4953972e-001
  8.5093139e-001  6.0786401e-002  5.4866034e-002  5.0547748e-002  5.9076694e-002  6.5202821e-001
  9.1591658e-001  5.8931489e-001  3.8025432e-001  4.9310389e-001  8.6797665e-001  6.1651536e-002
  4.3152274e-001  1.8600329e-001  1.7872371e-001  7.6912581e-001  2.8181739e-001  9.2094216e-001
  9.7340896e-002  1.0425172e-001  5.1975826e-001  5.0688496e-001  9.8037343e-001  9.0469072e-001
  9.6949507e-001  1.5785865e-001  6.0785134e-001  1.3009202e-002  1.5204973e-001  3.5381442e-001
  9.0554630e-001  1.9606881e-001  5.0033926e-001  5.6229861e-001  7.6018459e-001  5.7854502e-001
  5.6474229e-001  8.3179641e-001  8.2523579e-001  5.0489281e-001  8.3927485e-002  4.0613567e-001
  1.5521020e-001  6.7690097e-001  3.9604307e-001  6.6065543e-001  6.6851232e-001  5.5394715e-001
  7.7568885e-001  5.9118264e-001  4.2215071e-001  5.1011287e-001  2.7775595e-001  2.5586123e-001
  2.2194175e-001  4.4229339e-001  2.9983011e-001  3.0589001e-001  5.5432308e-002  8.9776139e-001
  6.9745041e-001  4.5628060e-001  8.3622041e-001  9.2224114e-001  1.3156071e-002  1.7719849e-001
  7.9897744e-001  1.0340134e-002  4.9272075e-001  7.2912332e-001  1.4542401e-001  5.8923868e-001
  8.4686607e-001  9.4159586e-001  5.3784703e-001  3.2934529e-001  9.4645278e-002  9.1787080e-001
  8.6386870e-001  2.1529399e-001  9.3838275e-001  4.2993401e-001  5.0790226e-001  1.9699185e-001
  8.7062485e-002  6.5568077e-001  3.3139590e-001  1.9491269e-001  9.5807690e-001  4.5322903e-001
  1.7113137e-001  8.0712226e-001  5.0445741e-001  7.1146816e-001  4.1467701e-001  7.5351854e-001
  3.9965741e-001  8.9580594e-001  2.1821591e-001  5.0154029e-001  5.6356702e-001  5.4666499e-001
  5.6681849e-001  1.1749756e-001  5.5095560e-001  1.9165251e-001  5.8420760e-001  9.1905554e-001
  7.4694871e-001  5.5798236e-001  4.6047435e-002  6.0392291e-001  7.5733245e-001  8.3761284e-001
  6.3666984e-001  9.7774329e-001  6.3712626e-001  5.4484126e-001  6.1690203e-001  9.7614728e-001
  9.9513551e-001  6.9356872e-001  1.6320981e-001  8.8698634e-001  7.3068392e-001  2.2863139e-001
  8.2359054e-001  5.6726908e-001  6.8758925e-001  3.9869599e-001  6.2563318e-001  1.2653957e-001
  4.0955843e-001  6.8750612e-001  1.1880621e-001  7.5589959e-001  8.9126765e-001  9.3017774e-001
  4.1521882e-001  4.1613400e-001  6.9610093e-001  2.3216843e-001  6.1030794e-001  5.8259728e-001
  6.9796999e-001  5.5496045e-001  8.0064700e-001  2.4233271e-001  1.6095793e-001  8.3131218e-001
  4.3536579e-001  4.5170590e-001  4.0073592e-002  2.3765175e-001  4.5646410e-001  4.3854771e-001
  9.4103613e-001  1.7656639e-001  8.8424137e-001  2.6206210e-001  1.8693171e-001  1.4419333e-001
  4.7058146e-001  7.1469885e-002  4.9976246e-001  4.8757649e-001  9.3300770e-001  2.6871383e-001
  3.4023713e-002  3.0911512e-001  2.0495544e-001  5.8442809e-001  6.3459218e-001  8.0661644e-001
  2.4834043e-001  9.5582988e-001  1.0295743e-001  8.2718659e-001  9.1882069e-001  4.8950892e-001
  9.0086696e-001  7.2856485e-002  2.8246363e-001  7.4593138e-001  9.7666052e-001  1.6481912e-001
  8.5366217e-001  8.4202985e-001  9.1382453e-001  3.6010881e-001  5.4081407e-001  6.1906990e-001
  2.9901294e-001  9.1321581e-001  4.0650282e-001  4.0136908e-001  8.5502993e-001  6.2559486e-001
  2.5779270e-001  3.6880629e-001  7.8096018e-001  6.5874904e-001  4.3351131e-001  2.9978302e-001
  7.9043791e-001  7.2899209e-001  6.2393422e-001  3.0957040e-001  7.9408104e-001  8.3602018e-001
  5.9877661e-001  9.3835318e-002  6.8551992e-001  2.2460581e-001  1.6377699e-001  5.3048332e-001
  5.2773461e-001  7.2293697e-002  4.6384930e-001  6.2704191e-001  6.2004458e-001  3.2874437e-001
  9.7048982e-001  5.7746900e-001  2.8890014e-002  1.8641483e-001  3.9677439e-001  9.5897285e-001
  6.4465114e-001  4.5263924e-001  8.1888753e-001  5.5387561e-001  1.9858390e-001  4.9543859e-001
  1.4127588e-002  2.8714868e-001  4.8197094e-001  3.4429989e-001  8.2718961e-001  4.8799459e-001
  4.8467873e-001  2.8297091e-001  6.3167496e-001  5.1219903e-001  5.0934820e-001  4.0371322e-001
  6.0987163e-001  3.9098449e-001  5.1526879e-002  8.2425679e-001  6.1994217e-001  1.3545754e-001
  3.8524638e-001  8.6353519e-001  1.4944825e-001  9.8490493e-001  4.6037586e-001  2.1280706e-001
  8.3875074e-001  9.5058486e-001  1.3102270e-001  3.1380799e-001  1.2598857e-001  3.9542256e-001
  8.0138689e-001  2.9338744e-001  3.7903380e-001  1.5621023e-001  5.4551992e-001  9.3287514e-001
  9.6599643e-001  2.1925814e-001  2.2334205e-001  6.7347383e-001  6.6945168e-001  5.4227879e-001
  9.2867221e-001  6.0338542e-001  1.5682519e-001  6.7903883e-001  1.1036908e-001  2.5641284e-002
  5.4746430e-002  3.1449137e-001  5.4021859e-001  1.2141110e-001  1.7599125e-002  2.1504152e-001
  7.1764941e-001  1.9356402e-001  7.2181814e-002  4.2689434e-001  6.0172976e-002  8.6301383e-001
  4.7480857e-001  5.6452612e-001  6.9129596e-001  7.5430639e-002  4.8008893e-001  8.6821265e-001
  4.9294928e-002  3.7196457e-001  8.7814094e-001  6.8118751e-001  6.5745256e-001  7.5262004e-002
  9.7388404e-001  2.5508228e-001  1.8397495e-001  1.4858595e-001  6.3966652e-001  5.4942144e-001
  8.6284105e-001  1.8964160e-001  5.1445619e-001  4.2983705e-001  5.9607203e-001  3.7480852e-001
  3.8088116e-001  2.6427546e-002  8.5674202e-001  1.9587484e-001  5.6744244e-002  4.2180966e-001
  3.1354748e-001  9.8909279e-001  8.9331928e-001  4.0750471e-001  7.6826323e-001  7.7651967e-001
  5.2998053e-001  8.1698045e-001  7.1209015e-001  2.3644227e-001  9.7020963e-001  1.0402701e-001
  2.4659253e-001  2.4611435e-002  3.6112692e-001  7.5027524e-002  6.3155953e-002  4.1206131e-001
  9.6118010e-001  8.9261385e-001  5.4441452e-001  5.0032768e-001  5.0279312e-001  3.8996390e-001
  9.4396602e-002  3.6058076e-001  3.8985026e-001  1.5578109e-001  9.4397656e-001  3.5913594e-001
  9.0582772e-001  5.8004792e-002  3.3247170e-002  2.1534129e-001  3.1981590e-001  2.3570573e-001
  2.8807079e-001  9.9387677e-001  7.6920988e-001  1.6391529e-001  6.3468654e-001  5.6214536e-002
  3.0736257e-001  7.7799493e-002  7.5387819e-002  3.4774324e-001  8.8846302e-001  4.3777745e-001
  7.1742039e-001  1.4847671e-001  4.6186555e-002  2.5698988e-001  1.2507927e-001  4.6802713e-001
  5.3414376e-001  4.5397987e-001  5.5633774e-001  1.1270558e-001  6.4398223e-002  3.4677509e-001
  1.7914941e-002  3.3323576e-001  8.1761718e-001  2.5790447e-001  5.6151753e-001  5.7688089e-001
  4.6428675e-001  6.7651692e-001  4.3725394e-001  8.4199157e-001  2.2357390e-001  9.4815735e-001
  6.1354142e-001  9.5799056e-001  4.9344820e-001  5.2086945e-001  8.4025524e-001  5.1432108e-001
  5.6520686e-001  4.7099877e-001  8.4706122e-001  6.4916545e-001  5.8925580e-001  4.4626497e-001
  3.0201853e-001  1.1536678e-001  2.8397227e-001  2.7163041e-001  1.6037069e-001  7.5749878e-001
  8.8574885e-001  1.9439908e-001  3.3873780e-001  8.8973033e-001  6.1594408e-001  3.9639654e-001
  7.6805931e-002  2.4092207e-001  9.3963131e-002  7.5448148e-002  9.1909273e-001  8.4037970e-001
  1.3970595e-001  6.0536835e-001  3.9741443e-001  8.5707098e-001  2.8429273e-001  3.0603512e-001
  9.6023498e-001  7.1839342e-001  3.9459536e-002  8.1890536e-002  8.4692660e-001  1.7124047e-001
  5.9291952e-001  1.6911360e-001  2.3891925e-001  6.0640115e-001  6.8721194e-001  7.1161502e-001
  3.2406916e-001  2.4405421e-001  4.4237443e-001  3.5901960e-001  8.9409796e-001  4.0566887e-001
  3.8318717e-001  2.8735808e-001  2.6373715e-001  8.5839665e-001  2.1783241e-002  9.0787578e-001
  8.8529863e-002  3.0375851e-001  3.5574571e-001  5.4139117e-003  8.0856818e-001  6.9421580e-001
  9.9863583e-001  1.7145664e-001  7.5139989e-001  4.5088005e-002  4.8103017e-001  1.2156715e-001
  5.2858487e-001  8.0084745e-004  1.1857862e-001  5.7849325e-001  7.5919585e-001  4.7613457e-001
  2.1625723e-001  9.3884695e-002  3.4390848e-001  6.9888267e-001  4.6115588e-001  7.8124413e-001
  8.3633138e-001  7.9766641e-001  4.7446191e-001  2.9846704e-001  3.0647883e-001  3.0265892e-001
  1.2554331e-001  5.7459890e-001  6.8316162e-001  3.1532839e-001  9.8817036e-003  5.7339544e-001
  3.2564467e-001  6.0560530e-001  3.0870017e-001  5.6500761e-001  5.3097581e-001  1.7392948e-001
  2.8772501e-001  8.0233301e-001  2.0740815e-001  8.8839456e-002  4.6110312e-001  4.6684175e-001